Wavelength,Crosssection (cm^2)
0.5,3.38259e-23
1.5,2.0608387096774193e-22
2.5,4.660516129032258e-22
3.5,7.260193548387097e-22
4.5,7.735714285714287e-22
5.5,2.174e-21
6.5,4.202e-21
7.5,6.23e-21
8.5,8.258e-21
9.5,1.0286e-20
10.5,1.896875e-20
11.5,3.430625e-20
12.5,4.9643750000000005e-20
13.5,6.498125e-20
14.5,8.031875e-20
15.5,9.565625e-20
16.5,1.1099375e-19
17.5,1.2633124999999999e-19
18.5,1.4174999999999999e-19
19.5,1.5725e-19
20.5,1.795e-19
21.5,2.085e-19
22.5,2.375e-19
23.5,2.665e-19
24.5,2.955e-19
25.5,3.3859999999999997e-19
26.5,3.958e-19
27.5,4.53e-19
28.5,5.102e-19
29.5,5.674e-19
30.5,6.374000000000001e-19
31.5,7.202e-19
32.5,8.030000000000001e-19
33.5,8.858e-19
34.5,9.686e-19
35.5,1.071e-18
36.5,1.1930000000000001e-18
37.5,1.315e-18
38.5,1.4370000000000001e-18
39.5,1.559e-18
40.5,1.696e-18
41.5,1.848e-18
42.5,2e-18
43.5,2.1519999999999998e-18
44.5,2.3040000000000002e-18
45.5,2.456e-18
46.5,2.608e-18
47.5,2.76e-18
48.5,2.912e-18
49.5,3.064e-18
50.5,3.2009999999999998e-18
51.5,3.323e-18
52.5,3.4449999999999998e-18
53.5,3.567e-18
54.5,3.689e-18
55.5,3.692857142857143e-18
56.5,3.589107142857143e-18
57.5,3.580178571428572e-18
58.5,3.57125e-18
59.5,3.5623214285714286e-18
60.5,3.553392857142857e-18
61.5,3.5444642857142854e-18
62.5,3.4943478260869564e-18
63.5,3.4030434782608696e-18
64.5,3.3117391304347827e-18
65.5,3.220434782608696e-18
66.5,3.129130434782609e-18
67.5,3.037826086956522e-18
68.5,2.9465217391304353e-18
69.5,2.8076470588235298e-18
70.5,2.6370588235294108e-18
71.5,2.9186956521739145e-18
72.5,3.2505797101449287e-18
73.5,3.582463768115943e-18
74.5,3.914347826086957e-18
75.5,4.2462318840579715e-18
76.5,4.578115942028986e-18
77.5,4.91e-18
78.5,5.781428571428572e-18
79.5,6.652857142857144e-18
80.5,7.524285714285715e-18
81.5,8.395714285714288e-18
82.5,9.26714285714286e-18
83.5,1.0138571428571431e-17
84.5,1.00675e-17
85.5,9.592499999999999e-18
86.5,9.117500000000001e-18
87.5,8.6425e-18
88.5,8.482500000000001e-18
89.5,8.922500000000002e-18
90.5,9.417500000000002e-18
91.5,9.942500000000002e-18
92.5,1.0566666666666667e-17
93.5,1.1233333333333334e-17
94.5,1.19e-17
95.5,1.2531578947368419e-17
96.5,1.3451923076923058e-17
97.5,1.6971153846153834e-17
98.5,2.0490384615384613e-17
99.5,2.4009615384615392e-17
100.5,2.7528846153846168e-17
101.5,3.1048076923076945e-17
102.5,3.1664705882352943e-17
103.5,3.0693749999999984e-17
104.5,2.466249999999999e-17
105.5,1.8631249999999994e-17
106.5,1.26e-17
107.5,1.1563157894736839e-17
108.5,1.03e-17
109.5,9.254545454545449e-18
110.5,1.02e-17
111.5,1.02e-17
112.5,8.585e-18
113.5,7.828181818181816e-18
114.5,8.30090909090909e-18
115.5,9.538214285714286e-18
116.5,1.0434642857142859e-17
117.5,1.1331071428571431e-17
118.5,1.0026666666666675e-17
119.5,1.0080000000000006e-17
120.5,1.0840000000000013e-17
121.5,1.1077777777777784e-17
122.5,1.395e-17
123.5,1.2980000000000017e-17
124.5,1.4249999999999967e-17
125.5,1.28e-17
126.5,1.37e-17
127.5,1.3733333333333365e-17
128.5,1.5274000000000047e-17
129.5,7.620000000000015e-18
130.5,7.321999999999977e-18
131.5,6.93600000000004e-18
132.5,7.572857142857134e-18
133.5,1e-17
134.5,9.176999999999938e-18
135.5,1.2372500000000166e-17
136.5,1.33e-17
137.5,4.649999999999927e-18
138.5,1.506000000000014e-17
139.5,3.1400000000000002e-18
140.5,2.4e-18
141.5,4.174285714285721e-18
142.5,4.11142857142856e-18
143.5,4.4188888888888764e-18
144.5,4.85e-18
145.5,6.082500000000001e-18
146.5,6.6238461538461505e-18
147.5,7.25e-18
148.5,8.48454545454547e-18
149.5,8.53e-18
150.5,9.065555555555557e-18
151.5,9.635e-18
152.5,9.959999999999995e-18
153.5,1.0599999999999999e-17
154.5,1.1349999999999999e-17
155.5,1.1980000000000012e-17
156.5,1.2600000000000018e-17
157.5,1.11e-17
158.5,1.4100000000000016e-17
159.5,1.4112500000000024e-17
160.5,1.4355555555555563e-17
161.5,1.6933333333333274e-17
162.5,1.538749999999998e-17
163.5,1.854000000000003e-17
164.5,1.4488888888888828e-17
165.5,2.0114285714285808e-17
166.5,2.065000000000006e-17
167.5,1.2179999999999938e-17
168.5,1.351249999999987e-17
169.5,1.770000000000007e-17
170.5,2.512857142857153e-17
171.5,8.096363636363605e-18
172.5,9.643000000000167e-18
173.5,1.377e-17
174.5,2.2758750000000095e-17
175.5,3.781666666666651e-18
176.5,2.1538888888888835e-18
177.5,1.5288888888888876e-18
178.5,1.2895714285714337e-18
179.5,7.7566666666666645e-19
180.5,7.076874999999979e-19
181.5,4.033125000000022e-19
182.5,4.100000000000009e-19
183.5,3.1039999999999817e-19
184.5,1.5089999999999817e-19
185.5,2.04e-19
186.5,1.2416666666666716e-19
187.5,6.347499999999989e-20
188.5,5.865333333333314e-20
189.5,2.2786666666666466e-20
190.5,2.4681818181818243e-20
191.5,1.8798181818181773e-20
192.5,9.920909090909116e-21
193.5,9.56799999999997e-21
194.5,1.6657894736842043e-20
195.5,2.4921052631578863e-20
196.5,0.0
197.5,0.0
198.5,0.0
199.5,0.0
200.5,0.0
201.5,0.0
202.5,0.0
203.5,0.0
204.5,0.0
205.5,0.0
206.5,0.0
207.5,0.0
208.5,0.0
209.5,0.0
210.5,0.0
211.5,0.0
212.5,0.0
213.5,0.0
214.5,0.0
215.5,0.0
216.5,0.0
217.5,0.0
218.5,0.0
219.5,0.0
220.5,0.0
221.5,0.0
222.5,0.0
223.5,0.0
224.5,0.0
225.5,0.0
226.5,0.0
227.5,0.0
228.5,0.0
229.5,0.0
230.5,0.0
231.5,0.0
232.5,0.0
233.5,0.0
234.5,0.0
235.5,0.0
236.5,0.0
237.5,0.0
238.5,0.0
239.5,0.0
240.5,0.0
241.5,0.0
242.5,0.0
243.5,0.0
244.5,0.0
245.5,0.0
246.5,0.0
247.5,0.0
248.5,0.0
249.5,0.0
250.5,0.0
251.5,0.0
252.5,0.0
253.5,0.0
254.5,0.0
255.5,0.0
256.5,0.0
257.5,0.0
258.5,0.0
259.5,0.0
260.5,0.0
261.5,0.0
262.5,0.0
263.5,0.0
264.5,0.0
265.5,0.0
266.5,0.0
267.5,0.0
268.5,0.0
269.5,0.0
270.5,0.0
271.5,0.0
272.5,0.0
273.5,0.0
274.5,0.0
275.5,0.0
276.5,0.0
277.5,0.0
278.5,0.0
279.5,0.0
280.5,0.0
281.5,0.0
282.5,0.0
283.5,0.0
284.5,0.0
285.5,0.0
286.5,0.0
287.5,0.0
288.5,0.0
289.5,0.0
290.5,0.0
291.5,0.0
292.5,0.0
293.5,0.0
294.5,0.0
295.5,0.0
296.5,0.0
297.5,0.0
298.5,0.0
299.5,0.0
