Wavelength,Crosssection (cm^2)
0.5,1.82242e-23
1.5,1.1100000000000002e-22
2.5,2.5100000000000004e-22
3.5,3.9100000000000006e-22
4.5,4.161428571428572e-22
5.5,1.1676000000000002e-21
6.5,2.2548e-21
7.5,3.3420000000000005e-21
8.5,4.4292000000000005e-21
9.5,5.5164e-21
10.5,1.0193750000000001e-20
11.5,1.846125e-20
12.5,2.672875e-20
13.5,3.499625e-20
14.5,4.326375e-20
15.5,5.153125e-20
16.5,5.979875e-20
17.5,6.806625e-20
18.5,7.6425e-20
19.5,8.4875e-20
20.5,9.689e-20
21.5,1.1246999999999999e-19
22.5,1.2805000000000001e-19
23.5,1.4363e-19
24.5,1.5921000000000002e-19
25.5,1.8240000000000001e-19
26.5,2.132e-19
27.5,2.44e-19
28.5,2.7479999999999997e-19
29.5,3.0560000000000003e-19
30.5,3.4350000000000004e-19
31.5,3.885e-19
32.5,4.3350000000000004e-19
33.5,4.785e-19
34.5,5.235e-19
35.5,5.7870000000000005e-19
36.5,6.441000000000001e-19
37.5,7.095000000000001e-19
38.5,7.749e-19
39.5,8.403000000000001e-19
40.5,9.137e-19
41.5,9.951e-19
42.5,1.0765e-18
43.5,1.1579e-18
44.5,1.2393e-18
45.5,1.321e-18
46.5,1.403e-18
47.5,1.485e-18
48.5,1.567e-18
49.5,1.649e-18
50.5,1.723e-18
51.5,1.789e-18
52.5,1.855e-18
53.5,1.921e-18
54.5,1.987e-18
55.5,1.987857142857143e-18
56.5,1.929642857142857e-18
57.5,1.9260714285714285e-18
58.5,1.9225e-18
59.5,1.9189285714285714e-18
60.5,1.915357142857143e-18
61.5,1.9117857142857143e-18
62.5,1.8853623188405797e-18
63.5,1.836086956521739e-18
64.5,1.7868115942028987e-18
65.5,1.737536231884058e-18
66.5,1.6882608695652175e-18
67.5,1.638985507246377e-18
68.5,1.5897101449275364e-18
69.5,1.513529411764706e-18
70.5,1.4194117647058818e-18
71.5,1.5717391304347835e-18
72.5,1.7514492753623195e-18
73.5,1.9311594202898556e-18
74.5,2.1108695652173916e-18
75.5,2.2905797101449277e-18
76.5,2.4702898550724637e-18
77.5,2.65e-18
78.5,3.1261904761904765e-18
79.5,3.6023809523809525e-18
80.5,4.078571428571429e-18
81.5,4.554761904761906e-18
82.5,5.030952380952382e-18
83.5,5.507142857142858e-18
84.5,5.468636363636363e-18
85.5,5.209545454545454e-18
86.5,4.950454545454546e-18
87.5,4.691363636363637e-18
88.5,3.977499999999994e-18
89.5,5.960000000000008e-18
90.5,6.249499999999998e-18
91.5,5.634499999999999e-18
92.5,5.784444444444446e-18
93.5,6.262222222222223e-18
94.5,6.74e-18
95.5,6.9136842105263155e-18
96.5,7.259038461538452e-18
97.5,9.149423076923071e-18
98.5,1.1039807692307691e-17
99.5,1.2930192307692312e-17
100.5,1.482057692307693e-17
101.5,1.671096153846155e-17
102.5,1.7058823529411767e-17
103.5,1.6551249999999993e-17
104.5,1.3307499999999995e-17
105.5,1.0063749999999997e-17
106.5,6.819999999999999e-18
107.5,6.2399999999999976e-18
108.5,5.54e-18
109.5,4.994545454545452e-18
110.5,5.47e-18
111.5,5.51e-18
112.5,4.635e-18
113.5,4.219999999999999e-18
114.5,4.4699999999999986e-18
115.5,5.132857142857143e-18
116.5,5.6185714285714295e-18
117.5,6.104285714285716e-18
118.5,1.0506666666666675e-17
119.5,1.0520000000000007e-17
120.5,1.1340000000000012e-17
121.5,1.1522222222222228e-17
122.5,1.455e-17
123.5,1.3560000000000019e-17
124.5,1.4849999999999966e-17
125.5,1.34e-17
126.5,1.4285714285714287e-17
127.5,1.4233333333333364e-17
128.5,1.5936000000000048e-17
129.5,7.930000000000016e-18
130.5,7.617999999999976e-18
131.5,7.224000000000041e-18
132.5,7.884285714285705e-18
133.5,1.05e-17
134.5,9.522999999999936e-18
135.5,1.2802500000000169e-17
136.5,1.385e-17
137.5,4.858333333333256e-18
138.5,1.5740000000000146e-17
139.5,3.2599999999999996e-18
140.5,2.4950000000000002e-18
141.5,4.347142857142865e-18
142.5,4.28142857142856e-18
143.5,4.604444444444432e-18
144.5,5.05e-18
145.5,6.330000000000001e-18
146.5,6.899230769230765e-18
147.5,7.55e-18
148.5,8.83363636363638e-18
149.5,8.87e-18
150.5,9.434444444444446e-18
151.5,1.0015e-17
152.5,1.0399999999999994e-17
153.5,1.11e-17
154.5,1.18e-17
155.5,1.2380000000000013e-17
156.5,1.3075000000000019e-17
157.5,1.16e-17
158.5,1.4690909090909107e-17
159.5,1.4687500000000026e-17
160.5,1.4944444444444455e-17
161.5,1.7566666666666606e-17
162.5,1.5999999999999983e-17
163.5,1.923000000000003e-17
164.5,1.5122222222222157e-17
165.5,2.0900000000000097e-17
166.5,2.1400000000000062e-17
167.5,1.2619999999999937e-17
168.5,1.4099999999999865e-17
169.5,1.8414285714285787e-17
170.5,2.6128571428571538e-17
171.5,8.430909090909059e-18
172.5,1.0037000000000172e-17
173.5,1.433e-17
174.5,2.3742500000000097e-17
175.5,3.933333333333318e-18
176.5,2.244444444444439e-18
177.5,1.5888888888888876e-18
178.5,1.337571428571434e-18
179.5,8.076666666666665e-19
180.5,7.359374999999977e-19
181.5,4.1906250000000227e-19
182.5,4.258888888888898e-19
183.5,3.221999999999981e-19
184.5,1.561999999999981e-19
185.5,2.12e-19
186.5,1.2905555555555608e-19
187.5,6.602499999999988e-20
188.5,6.103999999999978e-20
189.5,2.3639999999999787e-20
190.5,2.5709090909090977e-20
191.5,1.9592727272727226e-20
192.5,1.0333636363636386e-20
193.5,9.911999999999968e-21
194.5,1.731052631578941e-20
195.5,2.599473684210517e-20
196.5,3.3076923076922795e-20
197.5,8.596709393533576e-20
198.5,8.580256361201454e-20
199.5,8.563803328869333e-20
200.5,8.547350296537211e-20
201.5,8.53089726420509e-20
202.5,8.514444231872968e-20
203.5,8.497991199540846e-20
204.5,8.481538167208725e-20
205.5,8.465085134876602e-20
206.5,8.448632102544481e-20
207.5,8.432179070212359e-20
208.5,8.415726037880238e-20
209.5,8.399273005548116e-20
210.5,8.382819973215994e-20
211.5,8.366366940883873e-20
212.5,8.349913908551751e-20
213.5,8.33346087621963e-20
214.5,8.317007843887507e-20
215.5,8.300554811555386e-20
216.5,8.284101779223264e-20
217.5,8.267648746891142e-20
218.5,8.251195714559021e-20
219.5,8.234742682226899e-20
220.5,8.218289649894778e-20
221.5,8.201836617562656e-20
222.5,8.185383585230535e-20
223.5,8.168930552898413e-20
224.5,8.15247752056629e-20
225.5,8.136024488234169e-20
226.5,8.119571455902047e-20
227.5,8.103118423569926e-20
228.5,8.086665391237804e-20
229.5,8.070212358905683e-20
230.5,8.053759326573561e-20
231.5,8.037306294241439e-20
232.5,8.020853261909318e-20
233.5,8.004400229577195e-20
234.5,7.987947197245074e-20
235.5,7.971494164912952e-20
236.5,7.955041132580831e-20
237.5,7.938588100248709e-20
238.5,7.922135067916587e-20
239.5,7.905682035584466e-20
240.5,7.889229003252344e-20
241.5,7.872775970920223e-20
242.5,7.8563229385881e-20
243.5,7.83986990625598e-20
244.5,7.823416873923857e-20
245.5,7.806963841591736e-20
246.5,7.790510809259614e-20
247.5,7.774057776927492e-20
248.5,7.757604744595371e-20
249.5,7.741151712263249e-20
250.5,7.724698679931128e-20
251.5,7.708245647599006e-20
252.5,7.691792615266883e-20
253.5,7.675339582934762e-20
254.5,7.65888655060264e-20
255.5,7.642433518270519e-20
256.5,7.625980485938397e-20
257.5,7.609527453606276e-20
258.5,7.593074421274154e-20
259.5,7.576621388942033e-20
260.5,7.560168356609911e-20
261.5,7.543715324277789e-20
262.5,7.527262291945668e-20
263.5,7.510809259613545e-20
264.5,7.494356227281424e-20
265.5,7.477903194949302e-20
266.5,7.46145016261718e-20
267.5,7.444997130285059e-20
268.5,7.428544097952937e-20
269.5,7.412091065620816e-20
270.5,7.395638033288694e-20
271.5,7.379185000956573e-20
272.5,7.36273196862445e-20
273.5,7.34627893629233e-20
274.5,7.329825903960207e-20
275.5,7.313372871628085e-20
276.5,7.296919839295964e-20
277.5,7.280466806963842e-20
278.5,7.264013774631721e-20
279.5,7.247560742299599e-20
280.5,7.231107709967477e-20
281.5,7.214654677635356e-20
282.5,7.198201645303233e-20
283.5,7.181748612971112e-20
284.5,7.16529558063899e-20
285.5,7.148842548306869e-20
286.5,7.132389515974747e-20
287.5,7.115936483642626e-20
288.5,7.099483451310504e-20
289.5,7.083030418978382e-20
290.5,7.066577386646261e-20
291.5,7.050124354314138e-20
292.5,7.033671321982017e-20
293.5,7.017218289649895e-20
294.5,7.000765257317773e-20
295.5,6.984312224985652e-20
296.5,6.967859192653531e-20
297.5,6.951406160321409e-20
298.5,6.934953127989287e-20
299.5,6.918500095657166e-20
