# Wavelength (nm)    Crosssection (cm^2),
0.5,1.82E-23
1.5,1.11E-22
2.5,2.51E-22
3.5,3.91E-22
4.5,4.16E-22
5.5,1.17E-21
6.5,2.25E-21
7.5,3.34E-21
8.5,4.43E-21
9.5,5.52E-21
10.5,1.02E-20
11.5,1.85E-20
12.5,2.67E-20
13.5,3.50E-20
14.5,4.33E-20
15.5,5.15E-20
16.5,5.98E-20
17.5,6.81E-20
18.5,7.64E-20
19.5,8.49E-20
20.5,9.69E-20
21.5,1.12E-19
22.5,1.28E-19
23.5,1.44E-19
24.5,1.59E-19
25.5,1.82E-19
26.5,2.13E-19
27.5,2.44E-19
28.5,2.75E-19
29.5,3.06E-19
30.5,3.44E-19
31.5,3.89E-19
32.5,4.34E-19
33.5,4.79E-19
34.5,5.24E-19
35.5,5.79E-19
36.5,6.44E-19
37.5,7.10E-19
38.5,7.75E-19
39.5,8.40E-19
40.5,9.14E-19
41.5,9.95E-19
42.5,1.08E-18
43.5,1.16E-18
44.5,1.24E-18
45.5,1.32E-18
46.5,1.40E-18
47.5,1.49E-18
48.5,1.57E-18
49.5,1.65E-18
50.5,1.72E-18
51.5,1.79E-18
52.5,1.86E-18
53.5,1.92E-18
54.5,1.99E-18
55.5,1.99E-18
56.5,1.93E-18
57.5,1.93E-18
58.5,1.92E-18
59.5,1.92E-18
60.5,1.92E-18
61.5,1.91E-18
62.5,1.89E-18
63.5,1.84E-18
64.5,1.79E-18
65.5,1.74E-18
66.5,1.69E-18
67.5,1.64E-18
68.5,1.59E-18
69.5,1.51E-18
70.5,1.42E-18
71.5,1.57E-18
72.5,1.75E-18
73.5,1.93E-18
74.5,2.11E-18
75.5,2.29E-18
76.5,2.47E-18
77.5,2.65E-18
78.5,3.13E-18
79.5,3.60E-18
80.5,4.08E-18
81.5,4.55E-18
82.5,5.03E-18
83.5,5.51E-18
84.5,5.47E-18
85.5,5.21E-18
86.5,4.95E-18
87.5,4.69E-18
88.5,3.98E-18
89.5,5.96E-18
90.5,6.25E-18
91.5,5.63E-18
92.5,5.78E-18
93.5,6.26E-18
94.5,6.74E-18
95.5,6.91E-18
96.5,7.26E-18
97.5,9.15E-18
98.5,1.10E-17
99.5,1.29E-17
100.5,1.48E-17
101.5,1.67E-17
102.5,1.71E-17
103.5,1.66E-17
104.5,1.33E-17
105.5,1.01E-17
106.5,6.82E-18
107.5,6.24E-18
108.5,5.54E-18
109.5,4.99E-18
110.5,5.47E-18
111.5,5.51E-18
112.5,4.64E-18
113.5,4.22E-18
114.5,4.47E-18
115.5,5.13E-18
116.5,5.62E-18
117.5,6.10E-18
118.5,1.05E-17
119.5,1.05E-17
120.5,1.13E-17
121.5,1.15E-17
122.5,1.46E-17
123.5,1.36E-17
124.5,1.48E-17
125.5,1.34E-17
126.5,1.43E-17
127.5,1.42E-17
128.5,1.59E-17
129.5,7.93E-18
130.5,7.62E-18
131.5,7.22E-18
132.5,7.88E-18
133.5,1.05E-17
134.5,9.52E-18
135.5,1.28E-17
136.5,1.39E-17
137.5,4.86E-18
138.5,1.57E-17
139.5,3.26E-18
140.5,2.50E-18
141.5,4.35E-18
142.5,4.28E-18
143.5,4.60E-18
144.5,5.05E-18
145.5,6.33E-18
146.5,6.90E-18
147.5,7.55E-18
148.5,8.83E-18
149.5,8.87E-18
150.5,9.43E-18
151.5,1.00E-17
152.5,1.04E-17
153.5,1.11E-17
154.5,1.18E-17
155.5,1.24E-17
156.5,1.31E-17
157.5,1.16E-17
158.5,1.47E-17
159.5,1.47E-17
160.5,1.49E-17
161.5,1.76E-17
162.5,1.60E-17
163.5,1.92E-17
164.5,1.51E-17
165.5,2.09E-17
166.5,2.14E-17
167.5,1.26E-17
168.5,1.41E-17
169.5,1.84E-17
170.5,2.61E-17
171.5,8.43E-18
172.5,1.00E-17
173.5,1.43E-17
174.5,2.37E-17
175.5,3.93E-18
176.5,2.24E-18
177.5,1.59E-18
178.5,1.34E-18
179.5,8.08E-19
180.5,7.36E-19
181.5,4.19E-19
182.5,4.26E-19
183.5,3.22E-19
184.5,1.56E-19
185.5,2.12E-19
186.5,1.29E-19
187.5,6.60E-20
188.5,6.10E-20
189.5,2.36E-20
190.5,2.57E-20
191.5,1.96E-20
192.5,1.03E-20
193.5,9.91E-21
194.5,1.73E-20
195.5,2.60E-20
196.5,3.31E-20
197.5,8.60E-20
198.5,8.58E-20
199.5,8.56E-20
200.5,8.55E-20
201.5,8.53E-20
202.5,8.51E-20
203.5,8.50E-20
204.5,8.48E-20
205.5,8.47E-20
206.5,8.45E-20
207.5,8.43E-20
208.5,8.42E-20
209.5,8.40E-20
210.5,8.38E-20
211.5,8.37E-20
212.5,8.35E-20
213.5,8.33E-20
214.5,8.32E-20
215.5,8.30E-20
216.5,8.28E-20
217.5,8.27E-20
218.5,8.25E-20
219.5,8.23E-20
220.5,8.22E-20
221.5,8.20E-20
222.5,8.19E-20
223.5,8.17E-20
224.5,8.15E-20
225.5,8.14E-20
226.5,8.12E-20
227.5,8.10E-20
228.5,8.09E-20
229.5,8.07E-20
230.5,8.05E-20
231.5,8.04E-20
232.5,8.02E-20
233.5,8.00E-20
234.5,7.99E-20
235.5,7.97E-20
236.5,7.96E-20
237.5,7.94E-20
238.5,7.92E-20
239.5,7.91E-20
240.5,7.89E-20
241.5,7.87E-20
242.5,7.86E-20
243.5,7.84E-20
244.5,7.82E-20
245.5,7.81E-20
246.5,7.79E-20
247.5,7.77E-20
248.5,7.76E-20
249.5,7.74E-20
250.5,7.72E-20
251.5,7.71E-20
252.5,7.69E-20
253.5,7.68E-20
254.5,7.66E-20
255.5,7.64E-20
256.5,7.63E-20
257.5,7.61E-20
258.5,7.59E-20
259.5,7.58E-20
260.5,7.56E-20
261.5,7.54E-20
262.5,7.53E-20
263.5,7.51E-20
264.5,7.49E-20
265.5,7.48E-20
266.5,7.46E-20
267.5,7.44E-20
268.5,7.43E-20
269.5,7.41E-20
270.5,7.40E-20
271.5,7.38E-20
272.5,7.36E-20
273.5,7.35E-20
274.5,7.33E-20
275.5,7.31E-20
276.5,7.30E-20
277.5,7.28E-20
278.5,7.26E-20
279.5,7.25E-20
280.5,7.23E-20
281.5,7.21E-20
282.5,7.20E-20
283.5,7.18E-20
284.5,7.17E-20
285.5,7.15E-20
286.5,7.13E-20
287.5,7.12E-20
288.5,7.10E-20
289.5,7.08E-20
290.5,7.07E-20
291.5,7.05E-20
292.5,7.03E-20
293.5,7.02E-20
294.5,7.00E-20
295.5,6.98E-20
296.5,6.97E-20
297.5,6.95E-20
298.5,6.93E-20
299.5,6.92E-20
